q,intensity
1.000000000000000021e-02,3.779291883768776059e+07
1.246231155778894546e-02,3.765012280050732940e+07
1.492462311557788898e-02,3.747615269483166933e+07
1.738693467336683424e-02,3.727121517488005012e+07
1.984924623115577949e-02,3.703605296510174125e+07
2.231155778894472475e-02,3.677151206150646508e+07
2.477386934673366653e-02,3.647892689798407257e+07
2.723618090452261525e-02,3.615648192768005282e+07
2.969849246231155704e-02,3.580699011132319272e+07
3.216080402010050576e-02,3.543082264948406816e+07
3.462311557788944755e-02,3.502840325731965899e+07
3.708542713567839627e-02,3.460040182775595039e+07
3.954773869346733806e-02,3.414843271871183068e+07
4.201005025125628678e-02,3.367302529418441653e+07
4.447236180904522856e-02,3.317456563051243499e+07
4.693467336683417729e-02,3.265441728412758932e+07
4.939698492462311907e-02,3.211435887754605711e+07
5.185929648241206086e-02,3.155507322277285159e+07
5.432160804020100958e-02,3.097725880378659442e+07
5.678391959798995137e-02,3.038158570127202198e+07
5.924623115577890009e-02,2.977035390260988101e+07
6.170854271356784188e-02,2.914549687886385992e+07
6.417085427135678366e-02,2.850613285582430288e+07
6.663316582914573238e-02,2.785442174711070955e+07
6.909547738693466723e-02,2.719166352786356956e+07
7.155778894472361595e-02,2.651896329907692969e+07
7.402010050251256468e-02,2.583745267049917206e+07
7.648241206030149952e-02,2.514916509029069543e+07
7.894472361809044825e-02,2.445420919823020697e+07
8.140703517587939697e-02,2.375441460136201233e+07
8.386934673366834569e-02,2.305089217435111105e+07
8.633165829145728054e-02,2.234589671625556797e+07
8.879396984924622926e-02,2.163859330409586802e+07
9.125628140703517799e-02,2.093108704657674208e+07
9.371859296482411283e-02,2.022509895639967918e+07
9.618090452261306156e-02,1.952034774785924703e+07
9.864321608040201028e-02,1.882024562051577121e+07
1.011055276381909590e-01,1.812376781994337216e+07
1.035678391959798939e-01,1.743233631152157858e+07
1.060301507537688426e-01,1.674788467111322097e+07
1.084924623115577913e-01,1.607077012548296340e+07
1.109547738693467261e-01,1.540150620415116102e+07
1.134170854271356749e-01,1.474196181165734120e+07
1.158793969849246236e-01,1.409200041365174577e+07
1.183417085427135723e-01,1.345244544625947997e+07
1.208040201005025072e-01,1.282535502999144420e+07
1.232663316582914559e-01,1.221021344973732159e+07
1.257286432160804046e-01,1.160798073653076030e+07
1.281909547738693533e-01,1.101954265494856052e+07
1.306532663316583021e-01,1.044486520541786589e+07
1.331155778894472508e-01,9.885161895920673385e+06
1.355778894472361995e-01,9.340487932476790622e+06
1.380402010050251482e-01,8.811198369312930852e+06
1.405025125628140970e-01,8.297476504173199646e+06
1.429648241206030179e-01,7.800726297108957544e+06
1.454271356783919666e-01,7.320068014566630125e+06
1.478894472361809154e-01,6.856317673940555193e+06
1.503517587939698641e-01,6.409385856772519648e+06
1.528140703517588128e-01,5.979344879850666039e+06
1.552763819095477615e-01,5.566534698242293671e+06
1.577386934673367103e-01,5.170767160318431444e+06
1.602010050251256312e-01,4.792237641873807646e+06
1.626633165829145800e-01,4.430700264867249876e+06
1.651256281407035287e-01,4.086290996331400238e+06
1.675879396984924774e-01,3.758578669952870812e+06
1.700502512562814261e-01,3.447494800324826036e+06
1.725125628140703749e-01,3.152861578556647990e+06
1.749748743718593236e-01,2.874598563301121816e+06
1.774371859296482445e-01,2.612155608607539441e+06
1.798994974874371933e-01,2.365456493631164543e+06
1.823618090452261420e-01,2.134045454604987986e+06
1.848241206030150907e-01,1.917506716929389862e+06
1.872864321608040394e-01,1.715532882401344599e+06
1.897487437185929882e-01,1.527806632364724530e+06
1.922110552763819369e-01,1.353712428696613526e+06
1.946733668341708579e-01,1.192984517019214341e+06
1.971356783919598066e-01,1.044955992944984115e+06
1.995979899497487553e-01,9.094410245470694499e+05
2.020603015075377040e-01,7.855695190701173851e+05
2.045226130653266527e-01,6.731591776780234650e+05
2.069849246231156015e-01,5.715062139225103892e+05
2.094472361809045502e-01,4.803168173074664082e+05
2.119095477386934712e-01,3.988215145365578355e+05
2.143718592964824199e-01,3.266122693845586618e+05
2.168341708542713686e-01,2.632097463967796648e+05
2.192964824120603173e-01,2.080217596080795629e+05
2.217587939698492661e-01,1.606376671781983168e+05
2.242211055276382148e-01,1.204156728791774658e+05
2.266834170854271635e-01,8.695679459665913600e+04
2.291457286432160845e-01,5.971285741771788162e+04
2.316080402010050332e-01,3.821831074587842886e+04
2.340703517587939819e-01,2.195144785517840501e+04
2.365326633165829306e-01,1.052124202296303883e+04
2.389949748743718794e-01,3.426419937076614133e+03
2.414572864321608281e-01,2.646581301391533998e+02
2.439195979899497768e-01,5.943819345501364069e+02
2.463819095477386978e-01,4.019218530457037559e+03
2.488442211055276465e-01,1.015833373701379060e+04
2.513065326633165952e-01,1.860999550312498468e+04
2.537688442211055162e-01,2.905416588309823419e+04
2.562311557788944927e-01,4.114010731125902385e+04
2.586934673366834136e-01,5.457781657384008577e+04
2.611557788944723901e-01,6.902103248253512720e+04
2.636180904522613111e-01,8.424258957081229892e+04
2.660804020100502876e-01,9.996279108320435626e+04
2.685427135678392085e-01,1.159440622018901195e+05
2.710050251256281850e-01,1.319505806465568894e+05
2.734673366834171060e-01,1.477852848585490428e+05
2.759296482412060270e-01,1.632830358647042594e+05
2.783919597989950034e-01,1.783040503276285308e+05
2.808542713567839244e-01,1.926497842847429274e+05
2.833165829145729009e-01,2.061976258491292247e+05
2.857788944723618219e-01,2.188744423609076766e+05
2.882412060301507983e-01,2.305171346793757984e+05
2.907035175879397193e-01,2.411127920333923830e+05
2.931658291457286403e-01,2.505633414374070417e+05
2.956281407035176167e-01,2.588461445316630416e+05
2.980904522613065377e-01,2.658894247173101176e+05
3.005527638190955142e-01,2.716982779506389052e+05
3.030150753768844352e-01,2.762234650143237668e+05
3.054773869346734116e-01,2.795496832275145571e+05
3.079396984924623326e-01,2.816671267273630947e+05
3.104020100502512536e-01,2.825560160269704065e+05
3.128643216080402301e-01,2.822231133670524578e+05
3.153266331658291510e-01,2.807163339135247516e+05
3.177889447236181275e-01,2.781639906871410785e+05
3.202512562814070485e-01,2.746387769358960795e+05
3.227135678391960250e-01,2.699796520573346643e+05
3.251758793969849459e-01,2.644741855087943841e+05
3.276381909547738669e-01,2.580625772648435668e+05
3.301005025125628434e-01,2.509416924963653437e+05
3.325628140703517643e-01,2.431045832385415270e+05
3.350251256281407408e-01,2.345891306753034878e+05
3.374874371859296618e-01,2.255194426845630514e+05
3.399497487437186383e-01,2.160107075370601087e+05
3.424120603015075592e-01,2.061041520602456003e+05
3.448743718592964802e-01,1.958232987358070677e+05
3.473366834170854567e-01,1.853512949040984968e+05
3.497989949748743777e-01,1.746993827740303532e+05
3.522613065326633541e-01,1.638808255237530684e+05
3.547236180904522751e-01,1.531494943222597067e+05
3.571859296482412516e-01,1.424063933572974056e+05
3.596482412060301725e-01,1.317623048828820465e+05
3.621105527638190935e-01,1.212696188683905348e+05
3.645728643216080700e-01,1.110236361754759273e+05
3.670351758793969910e-01,1.010333206058562209e+05
3.694974874371859674e-01,9.138525181368441554e+04
3.719597989949748884e-01,8.209423104467299709e+04
3.744221105527638649e-01,7.319250143465326983e+04
3.768844221105527859e-01,6.474522515109714732e+04
3.793467336683417068e-01,5.674278358719917742e+04
3.818090452261306833e-01,4.923775254018600390e+04
3.842713567839196043e-01,4.224868348330121808e+04
3.867336683417085808e-01,3.582205867072439287e+04
3.891959798994975017e-01,2.990764615013245566e+04
3.916582914572864782e-01,2.454947167825042925e+04
3.941206030150753992e-01,1.973620941091646455e+04
3.965829145728643201e-01,1.546425313786647166e+04
3.990452261306532966e-01,1.176106993529311694e+04
4.015075376884422176e-01,8.585390709717830759e+03
4.039698492462311941e-01,5.947792528740556918e+03
4.064321608040201150e-01,3.813929612943290977e+03
4.088944723618090915e-01,2.173685412724251819e+03
4.113567839195980125e-01,1.008853368574827641e+03
4.138190954773869334e-01,2.964171372183417361e+02
4.162814070351759099e-01,8.382168488816548191e+00
4.187437185929648309e-01,1.215873672733013251e+02
4.212060301507538074e-01,6.048668745107047471e+02
4.236683417085427283e-01,1.431713315093571964e+03
4.261306532663317048e-01,2.564651420484506616e+03
4.285929648241206258e-01,3.985172823406392126e+03
4.310552763819095468e-01,5.642616921742049271e+03
4.335175879396985232e-01,7.521745757775014681e+03
4.359798994974874442e-01,9.587227141349687372e+03
4.384422110552764207e-01,1.180534370357243097e+04
4.409045226130653417e-01,1.413201122752213814e+04
4.433668341708543181e-01,1.654719843956811019e+04
4.458291457286432391e-01,1.903936811612872407e+04
4.482914572864321601e-01,2.154936075418256223e+04
4.507537688442211365e-01,2.406372736857986456e+04
4.532160804020100575e-01,2.654019215322308446e+04
4.556783919597990340e-01,2.898567777286458659e+04
4.581407035175879550e-01,3.135288535455410965e+04
4.606030150753769314e-01,3.361744640382588113e+04
4.630653266331658524e-01,3.579257270893762325e+04
4.655276381909547734e-01,3.779638261564311688e+04
4.679899497487437499e-01,3.965570959363590373e+04
4.704522613065326708e-01,4.139681860522484931e+04
4.729145728643216473e-01,4.292992985494453751e+04
4.753768844221105683e-01,4.429955333552149386e+04
4.778391959798995448e-01,4.545731215427006828e+04
4.803015075376884657e-01,4.642274173250621971e+04
4.827638190954773867e-01,4.718889086380258959e+04
4.852261306532663632e-01,4.773622418008426757e+04
4.876884422110552841e-01,4.810814107530861656e+04
4.901507537688442606e-01,4.824061482708200492e+04
4.926130653266331816e-01,4.816371936581879709e+04
4.950753768844221581e-01,4.793597597817370843e+04
4.975376884422110790e-01,4.747959453992496856e+04
5.000000000000000000e-01,4.686127749366137868e+04
